time,force
0.00,0.1
0.05,0.4
0.10,0.9
0.15,1.5
0.20,2.3
0.25,3.5
0.30,5.2
0.35,7.0
0.40,8.5
0.45,9.3
0.50,10.0
0.55,9.7
0.60,9.0
0.65,8.1
0.70,7.2
0.75,6.1
0.80,5.0
0.85,4.0
0.90,3.2
0.95,2.5
1.00,1.8
1.05,1.2
1.10,0.7
1.15,0.3
1.20,0.1